*Filter Path 2: CenterFreq=10.560000 MHz; Bandwidth=185.000000 kHz
*Calibrated 08/02/19 at 10.040000 MHz.
CalVersion= 1.03
MagTable=
*  ADC      dBm      Phase   in increasing order of ADC
   5986  -115.000     0.00
   6037  -110.000     0.00
   6040  -116.000     0.00
   6044  -105.000     0.00
   6100  -100.000     0.00
   6347   -95.000     0.00
   6938   -90.000     0.00
   8123   -85.000     0.00
   9387   -80.000     0.00
  10662   -75.000     0.00
  12000   -70.000     0.00
  13325   -65.000     0.00
  14657   -60.000     0.00
  15968   -55.000     0.00
  17315   -50.000     0.00
  18644   -45.000     0.00
  19942   -40.000     0.00
  21280   -35.000     0.00
  22626   -30.000     0.00
  24031   -25.000     0.00
  25337   -20.000     0.00
  26696   -15.000     0.00
  28076   -10.000     0.00
  29269    -5.000     0.00
  29858     0.000     0.00
  29978     2.000     0.00
  30054     4.000     0.00
  30109     6.000     0.00
  30160     8.000     0.00
  30204    10.000     0.00
  30240    12.000     0.00
  30279    14.000     0.00
