*Filter Path 3: CenterFreq=10.692500 MHz; Bandwidth=2400.000000 kHz
*Calibrated 02/10/21 at 10.000000 MHz.
CalVersion= 1.03
MagTable=
*  ADC      dBm      Phase   in increasing order of ADC
  12780   -95.000     0.00
  12791  -100.000     0.00
  12792   -90.000     0.00
  12809   -85.000     0.00
  12871   -80.000     0.00
  13060   -75.000     0.00
  13553   -70.000     0.00
  14564   -65.000     0.00
  15858   -60.000     0.00
  17206   -55.000     0.00
  18536   -50.000     0.00
  19886   -45.000     0.00
  21241   -40.000     0.00
  22563   -35.000     0.00
  23975   -30.000     0.00
  25242   -25.000     0.00
  26612   -20.000     0.00
  27182   -18.000     0.00
  27739   -16.000     0.00
  28279   -14.000     0.00
  28813   -12.000     0.00
  29356   -10.000     0.00
  29629    -9.000     0.00
  29898    -8.000     0.00
  30142    -7.000     0.00
  30354    -6.000     0.00
  30532    -5.000     0.00
  30681    -4.000     0.00
  30801    -3.000     0.00
  30904    -2.000     0.00
  30988    -1.000     0.00
  31068     0.000     0.00
